,Date,Adj Close,daily_return
0,2017-01-03,68.5928955078125,
1,2017-01-04,69.72955322265625,0.016571070610575056
2,2017-01-05,69.01561737060547,-0.010238640849613456
3,2017-01-06,69.04380798339844,0.0004084671537687434
4,2017-01-09,69.212890625,0.0024489182526290514
5,2017-01-10,68.40503692626953,-0.011672012127155185
6,2017-01-11,68.61167144775389,0.0030207500904806395
7,2017-01-12,68.88410186767578,0.003970613369029152
8,2017-01-13,69.04380798339844,0.0023184756916689864
9,2017-01-17,68.89350128173828,-0.00217697583679477
10,2017-01-18,69.0250244140625,0.0019090789389024645
11,2017-01-19,68.32047271728516,-0.010207192286538436
12,2017-01-20,67.29657745361328,-0.0149866536771317
13,2017-01-23,68.05747985839844,0.011306702860329532
14,2017-01-24,69.08137512207031,0.01504456623727779
15,2017-01-25,68.97805023193361,-0.0014956982247982251
16,2017-01-26,68.87472534179689,-0.001497938689036582
17,2017-01-27,68.98745727539061,0.0016367678133637489
18,2017-01-30,68.62892150878906,-0.005197115254883422
19,2017-01-31,68.84590911865234,0.0031617517089423948
20,2017-02-01,69.76109313964844,0.013293222977400545
21,2017-02-02,69.18557739257811,-0.008249809760266458
22,2017-02-03,69.61014556884766,0.0061366572668812855
23,2017-02-06,69.20443725585939,-0.005828292839683891
24,2017-02-07,68.61946105957031,-0.008452871224518876
25,2017-02-08,69.39313507080078,0.011274848261469515
26,2017-02-09,69.41201782226561,0.0002721126728970624
27,2017-02-10,70.56305694580078,0.016582706563616822
28,2017-02-13,70.22340393066406,-0.0048134679793933035
29,2017-02-14,69.65731048583984,-0.008061321626948725
30,2017-02-15,69.06291198730469,-0.008533181864034067
31,2017-02-16,70.00639343261719,0.013661188301558049
32,2017-02-17,69.72335815429689,-0.0040429918532044464
33,2017-02-21,70.37433624267578,0.00933658540855542
34,2017-02-22,70.06301116943361,-0.004423843830918872
35,2017-02-23,69.930908203125,-0.0018854879929317558
36,2017-02-24,70.15736389160156,0.003238277526995459
37,2017-02-27,70.27056121826172,0.001613477479499581
38,2017-02-28,70.29888153076172,0.00040301816306875793
39,2017-03-01,71.76127624511719,0.020802531740359956
40,2017-03-02,71.52539825439453,-0.0032869815458265172
41,2017-03-03,71.74240112304688,0.003033927443235385
42,2017-03-06,71.37444305419922,-0.005128878642025936
43,2017-03-07,71.2046127319336,-0.0023794276354165427
44,2017-03-08,71.64806365966797,0.006227839892955389
45,2017-03-09,71.56314849853516,-0.001185170356259202
46,2017-03-10,72.45001983642578,0.012392849622998137
47,2017-03-13,72.41227722167969,-0.0005209469208056207
48,2017-03-14,72.20469665527344,-0.002866648783475978
49,2017-03-15,72.87457275390625,0.009277458803421013
50,2017-03-16,72.62926483154297,-0.003366166182430685
51,2017-03-17,72.7236328125,0.0012993107003893554
52,2017-03-20,73.440673828125,0.009859807436651602
53,2017-03-21,72.43113708496094,-0.013746289222872687
54,2017-03-22,72.50662994384766,0.0010422707957513657
55,2017-03-23,72.79911804199219,0.004033949700476214
56,2017-03-24,72.28963470458984,-0.006998482277058128
57,2017-03-27,72.28963470458984,0.0
58,2017-03-28,72.71417999267578,0.005872837645685136
59,2017-03-29,72.6858901977539,-0.00038905471979089324
60,2017-03-30,72.51607513427734,-0.0023362864926680387
61,2017-03-31,72.63871002197266,0.0016911407224982078
62,2017-04-03,72.12924194335938,-0.007013726957144084
63,2017-04-04,72.40283966064453,0.003793159471993324
64,2017-04-05,71.78014373779297,-0.008600435090255655
65,2017-04-06,72.20469665527344,0.005914628968023861
66,2017-04-07,71.85562133789062,-0.004834523702099358
67,2017-04-10,72.54434967041016,0.00958489147676955
68,2017-04-11,72.57267761230469,0.0003904913618115735
69,2017-04-12,71.92168426513672,-0.008970226379763524
70,2017-04-13,71.51597595214844,-0.005640973471820465
71,2017-04-17,72.90288543701172,0.019393002282332983
72,2017-04-18,73.18595123291016,0.003882779045049078
73,2017-04-19,73.16706848144531,-0.00025801060376673396
74,2017-04-20,73.42179870605469,0.0034814873671475954
75,2017-04-21,73.5821762084961,0.002184330883576946
76,2017-04-24,73.87467193603516,0.003975089384557817
77,2017-04-25,74.2803726196289,0.005491742608955796
78,2017-04-26,74.85587310791016,0.0077476790703279175
79,2017-04-27,74.33699035644531,-0.006931757388185633
80,2017-04-28,75.76165008544922,0.019164883084083373
81,2017-05-01,75.52483367919922,-0.0031258084529957038
82,2017-05-02,75.97003936767578,0.005894825142781945
83,2017-05-03,76.20681762695312,0.003116732086071439
84,2017-05-04,77.09725952148438,0.011684543748961218
85,2017-05-05,77.5898666381836,0.00638942447185098
86,2017-05-08,78.158203125,0.007324880315449755
87,2017-05-09,78.12979125976562,-0.0003635173801134206
88,2017-05-10,78.49921417236328,0.004728323302047421
89,2017-05-11,78.1771469116211,-0.004102808724110507
90,2017-05-12,78.0824203491211,-0.0012116912197766005
91,2017-05-15,78.27186584472656,0.002426224683589773
92,2017-05-16,78.42344665527344,0.0019365938055899699
93,2017-05-17,77.9403305053711,-0.0061603534466673215
94,2017-05-18,77.80770111083984,-0.0017016786260882766
95,2017-05-19,78.01610565185547,0.0026784564771904487
96,2017-05-22,78.47077941894531,0.00582794748969917
97,2017-05-23,78.80235290527344,0.004225438931323655
98,2017-05-24,78.9917984008789,0.00240405887160744
99,2017-05-25,79.71170806884766,0.00911372677344624
100,2017-05-26,79.92009735107422,0.0026142870009331354
101,2017-05-30,80.08113861083984,0.0020150283233288935
102,2017-05-31,80.52632904052734,0.005559242006422105
103,2017-06-01,81.71044158935547,0.014704663219307969
104,2017-06-02,81.77671813964844,0.0008111148220939501
105,2017-06-05,81.3220443725586,-0.005559941477639274
106,2017-06-06,80.97154998779297,-0.004309955405940258
107,2017-06-07,81.17047882080078,0.002456774423088115
108,2017-06-08,80.75370788574219,-0.005134513694057374
109,2017-06-09,81.13259887695312,0.00469193305336546
110,2017-06-12,80.93366241455078,-0.002451991741372117
111,2017-06-13,81.63465118408203,0.008661275773493404
112,2017-06-14,81.70094299316406,0.0008120547845857918
113,2017-06-15,81.6820068359375,-0.0002317740350701314
114,2017-06-16,81.41675567626953,-0.003247363402820613
115,2017-06-19,82.17456817626953,0.009307819916249516
116,2017-06-20,82.30719757080078,0.0016139956372724913
117,2017-06-21,82.41140747070312,0.001266109197955556
118,2017-06-22,82.24087524414062,-0.002069279384933731
119,2017-06-23,82.221923828125,-0.0002304379173904136
120,2017-06-26,82.54400634765625,0.00391723404823896
121,2017-06-27,81.81462097167969,-0.00883632147565705
122,2017-06-28,82.3450698852539,0.006483546672639839
123,2017-06-29,81.92827606201172,-0.005061551636582284
124,2017-06-30,82.27877044677734,0.004278063711487422
125,2017-07-03,82.4871826171875,0.002533000545322573
126,2017-07-05,82.68608093261719,0.002411263291083099
127,2017-07-06,82.70503997802734,0.00022928944262834428
128,2017-07-07,83.44389343261719,0.008933596486818018
129,2017-07-10,83.642822265625,0.002383983115174848
130,2017-07-11,83.51966857910156,-0.0014723760292585375
131,2017-07-12,84.28695678710938,0.009186916340324204
132,2017-07-13,83.95540618896484,-0.003933593177197658
133,2017-07-14,84.7132339477539,0.009026551036908305
134,2017-07-17,85.05422973632812,0.004025295372202642
135,2017-07-18,85.00686645507812,-0.0005568597987052337
136,2017-07-19,85.33841705322266,0.0039002802005381203
137,2017-07-20,84.9689712524414,-0.004329185067386887
138,2017-07-21,84.78900146484375,-0.00211806480583332
139,2017-07-24,85.04566955566406,0.003027138973050958
140,2017-07-25,84.31368255615234,-0.008606987320296411
141,2017-07-26,83.71475219726562,-0.007103596245933597
142,2017-07-27,83.65771484375,-0.0006813297778296423
143,2017-07-28,78.24848937988281,-0.06465901529787366
144,2017-07-31,76.93657684326172,-0.01676597908813271
145,2017-08-01,78.4386215209961,0.019523154517186336
146,2017-08-02,78.19145965576172,-0.0031510225503926788
147,2017-08-03,78.19145965576172,0.0
148,2017-08-04,78.29601287841797,0.0013371437637377248
149,2017-08-07,78.65727233886719,0.0046140211636345185
150,2017-08-08,78.65727233886719,0.0
151,2017-08-09,78.41011047363281,-0.003142263364658282
152,2017-08-10,77.48796081542969,-0.011760596339335794
153,2017-08-11,78.08686065673828,0.007728940534841522
154,2017-08-14,78.81888580322266,0.009374498351294669
155,2017-08-15,78.66677856445312,-0.00192983239003508
156,2017-08-16,79.42731475830078,0.009667819220848584
157,2017-08-17,78.0773696899414,-0.016995980192296426
158,2017-08-18,78.09637451171875,0.00024341011810236068
159,2017-08-21,77.46895599365234,-0.008033900702679286
160,2017-08-22,78.06786346435547,0.007730935095500602
161,2017-08-23,77.58301544189453,-0.006210596792908364
162,2017-08-24,77.07919311523438,-0.0064939771132960225
163,2017-08-25,78.32455444335938,0.016156906653954858
164,2017-08-28,77.8207015991211,-0.00643288490843119
165,2017-08-29,77.95378875732422,0.0017101767970262305
166,2017-08-30,78.87590789794922,0.011829048405788578
167,2017-08-31,79.4843521118164,0.007713942445574106
168,2017-09-01,79.74101257324219,0.003229069050782796
169,2017-09-05,79.14210510253906,-0.007510657958513245
170,2017-09-06,78.7618408203125,-0.004804829006429423
171,2017-09-07,79.4843521118164,0.009173367254737608
172,2017-09-08,79.6839828491211,0.002511572806479512
173,2017-09-11,80.91983032226562,0.015509358706185196
174,2017-09-12,80.99588775634766,0.0009399109436973864
175,2017-09-13,80.33041381835938,-0.008216144750337941
176,2017-09-14,80.68217468261719,0.004378925086246932
177,2017-09-15,80.53007507324219,-0.001885169927227648
178,2017-09-18,81.22403717041016,0.008617427669560751
179,2017-09-19,81.33811950683594,0.0014045391044332778
180,2017-09-20,81.87049865722656,0.0065452601267217405
181,2017-09-21,81.89898681640625,0.00034796611290910384
182,2017-09-22,81.49022674560547,-0.004991027199360842
183,2017-09-25,82.47891998291016,0.01213266028073745
184,2017-09-26,82.46939849853516,-0.00011544142887631724
185,2017-09-27,82.26976776123047,-0.0024206644032723768
186,2017-09-28,82.78313446044922,0.00624004070011086
187,2017-09-29,82.05110931396484,-0.00884268457887527
188,2017-10-02,83.54364013671875,0.018190257697099588
189,2017-10-03,84.06649780273438,0.0062584975368558116
190,2017-10-04,83.79081726074219,-0.0032793151754588745
191,2017-10-05,83.79081726074219,0.0
192,2017-10-06,84.2091064453125,0.004992064742233904
193,2017-10-09,84.09503936767578,-0.00135456938627887
194,2017-10-10,84.10452270507812,0.00011276928429615474
195,2017-10-11,83.99996185302734,-0.0012432250809797376
196,2017-10-12,84.12355041503906,0.0014712930730607088
197,2017-10-13,84.45626068115234,0.003955019307575469
198,2017-10-16,84.55134582519531,0.0011258507454166011
199,2017-10-17,84.58937072753906,0.00044972557175326777
200,2017-10-18,84.22811889648438,-0.004270652777619954
201,2017-10-19,84.26612854003906,0.0004512702414902759
202,2017-10-20,84.79850769042969,0.006317830896166886
203,2017-10-23,84.63688659667969,-0.0019059426651707454
204,2017-10-24,84.72245788574219,0.0010110401327765306
205,2017-10-25,84.12355041503906,-0.007069052122057441
206,2017-10-26,84.55134582519531,0.00508532281442764
207,2017-10-27,83.59117889404297,-0.011356021856085308
208,2017-10-30,82.19371032714844,-0.016717895182049136
209,2017-10-31,83.08110046386719,0.010796326545994273
210,2017-11-01,83.40554809570312,0.003905191794817853
211,2017-11-02,82.63263702392578,-0.009266902375492771
212,2017-11-03,82.9570541381836,0.003926016716178093
213,2017-11-06,81.91699981689453,-0.01253726198566085
214,2017-11-07,81.79295349121094,-0.00151429283251181
215,2017-11-08,81.80247497558594,0.00011640959237424475
216,2017-11-09,80.87694549560547,-0.011314198992838477
217,2017-11-10,81.02007293701172,0.0017696939533160538
218,2017-11-13,81.66889953613281,0.00800822037799831
219,2017-11-14,81.68799591064453,0.00023382676416838774
220,2017-11-15,81.5639419555664,-0.001518631393697345
221,2017-11-16,82.16507720947266,0.007370110363642545
222,2017-11-17,81.72615814208984,-0.005341917543189578
223,2017-11-20,81.55440521240234,-0.002101566176509695
224,2017-11-21,82.57538604736328,0.01251901515683751
225,2017-11-22,81.91699981689453,-0.007973153526537713
226,2017-11-24,82.29867553710938,0.004659298083035114
227,2017-11-27,82.76622009277344,0.005681070231236429
228,2017-11-28,82.92845153808594,0.0019601166409515263
229,2017-11-29,83.54865264892578,0.00747874944409177
230,2017-11-30,84.3597183227539,0.009707705009154964
231,2017-12-01,83.58683013916016,-0.009161815602996004
232,2017-12-04,84.02574920654297,0.005251055299645646
233,2017-12-05,84.92268371582031,0.010674519629364942
234,2017-12-06,84.13070678710938,-0.009325858463931191
235,2017-12-07,84.33109283447266,0.002381841957780573
236,2017-12-08,83.8730697631836,-0.005431247905064884
237,2017-12-11,83.281494140625,-0.007053224881704123
238,2017-12-12,82.47042083740234,-0.00973893794284142
239,2017-12-13,82.71852111816406,0.003008354731824037
240,2017-12-14,82.4131851196289,-0.003691265201646643
241,2017-12-15,82.9952163696289,0.007062355970772537
242,2017-12-18,82.60401153564453,-0.004713582915936931
243,2017-12-19,82.61355590820312,0.00011554369311084224
244,2017-12-20,82.375,-0.00288761215493738
245,2017-12-21,81.83112335205078,-0.0066024479265458505
246,2017-12-22,81.9647216796875,0.0016326102119110786
247,2017-12-26,81.47807312011719,-0.005937292893790303
248,2017-12-27,81.69754028320312,0.002693573309746622
249,2017-12-28,82.77576446533203,0.013197755751167772
250,2017-12-29,82.3272933959961,-0.005417903081085584
251,2018-01-02,83.02388000488281,0.008461186808803811
252,2018-01-03,83.19561004638672,0.0020684415314462523
253,2018-01-04,82.06967163085938,-0.013533627734679254
254,2018-01-05,82.92845153808594,0.010464034888420848
255,2018-01-08,83.20515441894531,0.0033366459366759305
256,2018-01-09,82.43225860595703,-0.009289037661016521
257,2018-01-10,81.74525451660156,-0.008334165543606997
258,2018-01-11,82.29867553710938,0.00677006908572797
259,2018-01-12,82.59446716308594,0.0035941237698677853
260,2018-01-16,82.28912353515625,-0.003696901722566648
261,2018-01-17,82.86163330078125,0.0069572957036103675
262,2018-01-18,83.24330139160156,0.004606089400083224
263,2018-01-19,84.5505599975586,0.015704069686127475
264,2018-01-22,83.45323944091797,-0.012978276627290342
265,2018-01-23,83.58683013916016,0.001600785052050302
266,2018-01-24,84.15933227539062,0.0068491906593100005
267,2018-01-25,85.3330078125,0.013945875108286376
268,2018-01-26,85.05625915527344,-0.0032431606985500183
269,2018-01-29,83.71089172363281,-0.015817383047432187
270,2018-01-30,83.97901916503906,0.003203017383824447
271,2018-01-31,83.720458984375,-0.0030788664029991475
272,2018-02-01,83.16497802734375,-0.006634948777991312
273,2018-02-02,82.16902923583984,-0.011975579325908649
274,2018-02-05,79.85142517089844,-0.028205323666286364
275,2018-02-06,80.24407196044922,0.004917217052925915
276,2018-02-07,80.301513671875,0.0007158374447160387
277,2018-02-08,77.9360580444336,-0.02945717358588085
278,2018-02-09,78.68305206298828,0.009584703631389857
279,2018-02-12,79.10443115234375,0.0053553983775076475
280,2018-02-13,85.92312622070312,0.08619864866011806
281,2018-02-14,86.82334899902344,0.01047707198185499
282,2018-02-15,87.31175231933594,0.005625253182965696
283,2018-02-16,87.94381713867188,0.007239172305512964
284,2018-02-20,87.20640563964844,-0.008385029476951966
285,2018-02-21,86.344482421875,-0.009883714521328302
286,2018-02-22,86.77545166015625,0.004991277105299563
287,2018-02-23,87.13936614990234,0.004193749301027117
288,2018-02-26,86.9382553100586,-0.002307921766355192
289,2018-02-27,85.71241760253906,-0.014100095558021941
290,2018-02-28,85.63579559326172,-0.0008939429247305508
291,2018-03-01,85.23358154296875,-0.00469679819643809
292,2018-03-02,85.88480377197266,0.00764044191520452
293,2018-03-05,86.57434844970703,0.008028715761698058
294,2018-03-06,86.92867279052734,0.0040927173829803385
295,2018-03-07,86.32534790039062,-0.006940459008163535
296,2018-03-08,86.14337921142578,-0.0021079404067367857
297,2018-03-09,87.02442932128906,0.010227717068085784
298,2018-03-12,86.9382553100586,-0.000990227823411738
299,2018-03-13,86.67011260986328,-0.0030842889501175863
300,2018-03-14,86.25830841064453,-0.00475139799428259
301,2018-03-15,86.45941925048828,0.002331495290706753
302,2018-03-16,86.33492279052734,-0.0014399409693032215
303,2018-03-19,86.1529541015625,-0.00210770662766846
304,2018-03-20,85.9805679321289,-0.0020009316132140187
305,2018-03-21,85.79861450195312,-0.0021162157281795486
306,2018-03-22,84.23759460449219,-0.018193998895231656
307,2018-03-23,83.09796142578125,-0.013528795356297696
308,2018-03-26,84.47701263427734,0.016595487841513323
309,2018-03-27,84.35250854492188,-0.0014738221141232801
310,2018-03-28,84.62068176269531,0.0031791967115075703
311,2018-03-29,86.0284652709961,0.016636399979010674
312,2018-04-02,84.20886993408203,-0.02115108448328351
313,2018-04-03,85.76988220214844,0.018537385304996382
314,2018-04-04,85.91354370117188,0.0016749643969995456
315,2018-04-05,86.57434844970703,0.0076915084638295985
316,2018-04-06,84.7547378540039,-0.021017895349916268
317,2018-04-09,86.09550476074219,0.015819374122162392
318,2018-04-10,88.79615020751953,0.031368019204746966
319,2018-04-11,88.3460464477539,-0.005068955790467511
320,2018-04-12,88.77701568603516,0.004878194957327553
321,2018-04-13,88.82489013671875,0.0005392662764527323
322,2018-04-16,90.3188705444336,0.016819389310983812
323,2018-04-17,92.06184387207031,0.019297997385598897
324,2018-04-18,91.56385040283205,-0.005409336249339924
325,2018-04-19,90.7881317138672,-0.008471888038260711
326,2018-04-20,90.44337463378906,-0.0037973804898275842
327,2018-04-23,90.35718536376952,-0.0009529638889363976
328,2018-04-24,89.23667907714844,-0.012400854255364746
329,2018-04-25,89.20796203613281,-0.00032180759428301897
330,2018-04-26,89.33247375488281,0.0013957467013938631
331,2018-04-27,89.50485229492188,0.0019296290899997184
332,2018-04-30,89.54315185546875,0.00042790485169086345
333,2018-05-01,89.58146667480469,0.00042789223454842146
334,2018-05-02,88.64292907714844,-0.01047691707329701
335,2018-05-03,87.26387786865234,-0.015557374094620324
336,2018-05-04,88.35562133789062,0.012510829175865323
337,2018-05-07,88.87277221679688,0.005853061424677897
338,2018-05-08,88.18084716796875,-0.00778556842066591
339,2018-05-09,89.33405303955078,0.013077736363604986
340,2018-05-10,90.13166809082031,0.008928454761997662
341,2018-05-11,90.61215209960938,0.005330912197307969
342,2018-05-14,89.72805786132812,-0.009756905865224041
343,2018-05-15,88.50758361816406,-0.013601924216951944
344,2018-05-16,89.89142608642578,0.015635298261353903
345,2018-05-17,89.65117645263672,-0.002672664616067744
346,2018-05-18,89.91064453125,0.002894196025975848
347,2018-05-21,90.34310150146484,0.004809852854124941
348,2018-05-22,90.29503631591795,-0.0005320293940330734
349,2018-05-23,90.41996002197266,0.0013835057955746688
350,2018-05-24,90.36231231689452,-0.000637555082573904
351,2018-05-25,90.41036987304688,0.0005318318546765344
352,2018-05-29,89.67037963867188,-0.00818479379538084
353,2018-05-30,90.29503631591795,0.006966142886459803
354,2018-05-31,88.71902465820312,-0.017454023189057644
355,2018-06-01,89.15145111083984,0.0048741118864039645
356,2018-06-04,90.1989517211914,0.011749675381606872
357,2018-06-05,90.25660705566406,0.0006392018241061503
358,2018-06-06,90.24699401855469,-0.00010650784937493718
359,2018-06-07,89.60311889648438,-0.00713458801672584
360,2018-06-08,90.00675201416016,0.004504677098819298
361,2018-06-11,90.1604995727539,0.0017081780550147752
362,2018-06-12,90.47763061523438,0.003517405559898989
363,2018-06-13,90.6409912109375,0.0018055357395225788
364,2018-06-14,91.15994262695312,0.005725350187399503
365,2018-06-15,91.21760559082031,0.0006325471715482589
366,2018-06-18,91.1407241821289,-0.0008428351982431304
367,2018-06-19,90.57373046875,-0.006221079747466884
368,2018-06-20,90.94851684570312,0.004137914768592044
369,2018-06-21,89.46858978271484,-0.016272140704603474
370,2018-06-22,89.01692199707031,-0.005048339162844306
371,2018-06-25,88.58446502685547,-0.0048581433789529616
372,2018-06-26,89.09379577636719,0.005749662193673677
373,2018-06-27,88.50758361816406,-0.006579719194752531
374,2018-06-28,89.09379577636719,0.0066232986399463725
375,2018-06-29,89.73766326904297,0.0072268499401679795
376,2018-07-02,89.93946075439453,0.002248749053633814
377,2018-07-03,90.3238754272461,0.004274149184653409
378,2018-07-05,90.8524169921875,0.005851626299705703
379,2018-07-06,90.41036987304688,-0.0048655515590591
380,2018-07-09,91.39057159423828,0.010841695732113354
381,2018-07-10,92.36117553710938,0.010620394707459013
382,2018-07-11,91.9479522705078,-0.00447399314916197
383,2018-07-12,92.00560760498048,0.0006270431591892668
384,2018-07-13,91.16954040527344,-0.009087133072330113
385,2018-07-16,89.65117645263672,-0.016654289863557215
386,2018-07-17,90.94851684570312,0.01447098012987924
387,2018-07-18,90.9292984008789,-0.00021131125048279298
388,2018-07-19,92.57259368896484,0.018072231029883982
389,2018-07-20,92.04405212402344,-0.005709482081891926
390,2018-07-23,91.4290008544922,-0.006682140294111516
391,2018-07-24,91.05423736572266,-0.0040989564062499095
392,2018-07-25,91.03501892089844,-0.0002110659029191941
393,2018-07-26,92.3227310180664,0.0141452389688288
394,2018-07-27,98.88633728027344,0.071094151893347
395,2018-07-30,98.50194549560548,-0.00388720823563804
396,2018-07-31,98.76227569580078,0.0026428939944838077
397,2018-08-01,98.76227569580078,0.0
398,2018-08-02,99.29256439208984,0.00536934464655725
399,2018-08-03,100.37246704101562,0.01087596695218207
400,2018-08-06,100.47852325439452,0.001056626548150419
401,2018-08-07,99.84217834472656,-0.006333143532144092
402,2018-08-08,99.27328491210938,-0.005697926888703853
403,2018-08-09,100.17963409423828,0.009129839744210557
404,2018-08-10,98.71405792236328,-0.01462948218094251
405,2018-08-13,97.7691421508789,-0.009572251322375271
406,2018-08-14,98.32838439941406,0.005720028183044956
407,2018-08-15,97.71129608154295,-0.0062757902678891595
408,2018-08-16,98.02946472167969,0.0032562114401921693
409,2018-08-17,99.08045959472656,0.010721214035298576
410,2018-08-20,99.1768798828125,0.0009731514011979137
411,2018-08-21,99.59146881103516,0.004180298157317797
412,2018-08-22,99.48540496826172,-0.0010649892409427821
413,2018-08-23,99.2250747680664,-0.002616767758832239
414,2018-08-24,100.08321380615234,0.00864840908502007
415,2018-08-27,100.79670715332031,0.007129001158475035
416,2018-08-28,100.16998291015624,-0.006217705526935236
417,2018-08-29,100.9509735107422,0.007796653028147694
418,2018-08-30,100.9509735107422,0.0
419,2018-08-31,100.96063995361328,9.575383510340708e-05
420,2018-09-04,102.57083129882812,0.015948703831063726
421,2018-09-05,104.3063735961914,0.016920427331889032
422,2018-09-06,105.04879760742188,0.007117724311887841
423,2018-09-07,104.0363998413086,-0.00963740460787299
424,2018-09-10,104.67276763916016,0.006116780269427302
425,2018-09-11,104.63418579101562,-0.0003685948983171983
426,2018-09-12,105.4730453491211,0.00801706967721727
427,2018-09-13,106.85183715820312,0.013072456612190921
428,2018-09-14,107.96066284179688,0.010377226195484424
429,2018-09-17,107.31464385986328,-0.005983836750615867
430,2018-09-18,107.59427642822266,0.0026057260994551967
431,2018-09-19,107.15074920654295,-0.004122219474895439
432,2018-09-20,106.5336456298828,-0.005759209163070156
433,2018-09-21,106.36975860595705,-0.001538359294444125
434,2018-09-24,106.4275894165039,0.0005436771814166795
435,2018-09-25,104.8656005859375,-0.014676540539254048
436,2018-09-26,104.7113265991211,-0.0014711591404082958
437,2018-09-27,104.46063995361328,-0.002394073818466125
438,2018-09-28,103.88211822509766,-0.00553817905741838
439,2018-10-01,103.91104125976562,0.00027842168760261465
440,2018-10-02,104.27745819091795,0.003526255985023985
441,2018-10-03,104.13282775878906,-0.0013869769616372538
442,2018-10-04,103.2553939819336,-0.008426101506509909
443,2018-10-05,103.3325424194336,0.0007471613300269464
444,2018-10-08,103.81462860107422,0.004665385853798165
445,2018-10-09,101.93445587158205,-0.018110865056571782
446,2018-10-10,98.75262451171876,-0.031214483195670217
447,2018-10-11,97.93305206298828,-0.00829924726338005
448,2018-10-12,98.01020050048828,0.0007877671110503304
449,2018-10-15,98.4922866821289,0.004918734776368838
450,2018-10-16,101.81877136230469,0.03377406284526208
451,2018-10-17,101.259521484375,-0.005492600926598201
452,2018-10-18,100.53636169433594,-0.00714164731808109
453,2018-10-19,100.58458709716795,0.00047968120209729287
454,2018-10-22,100.24712371826172,-0.0033550207705305146
455,2018-10-23,99.9675064086914,-0.002789280122950544
456,2018-10-24,96.49642944335938,-0.034722052095021994
457,2018-10-25,97.6630859375,0.012090151945211902
458,2018-10-26,96.7663803100586,-0.009181622911396237
459,2018-10-29,96.57354736328124,-0.0019927680064034674
460,2018-10-30,98.07313537597656,0.015527937552654247
461,2018-10-31,98.64393615722656,0.0058201543069031905
462,2018-11-01,99.82425689697266,0.011965466765892385
463,2018-11-02,100.4240951538086,0.00600894287101994
464,2018-11-05,98.5665283203125,-0.018497222510703848
465,2018-11-06,100.71434020996094,0.021790479245334504
466,2018-11-07,101.6915054321289,0.009702344473794478
467,2018-11-08,101.71084594726562,0.0001901881091692648
468,2018-11-09,100.89816284179688,-0.007990132201732947
469,2018-11-12,98.46011352539062,-0.024163465892129143
470,2018-11-13,99.05028533935548,0.005994019231073454
471,2018-11-14,98.76004791259766,-0.002930202833474449
472,2018-11-15,101.38190460205078,0.02654774622804412
473,2018-11-16,102.82345581054688,0.01421901880966381
474,2018-11-19,101.75921630859376,-0.01035016274802103
475,2018-11-20,100.91751098632812,-0.0082715389602952
476,2018-11-21,100.13385772705078,-0.007765285247507858
477,2018-11-23,100.5208511352539,0.0038647608010669026
478,2018-11-26,100.31768035888672,-0.002021180422495772
479,2018-11-27,98.97289276123048,-0.013405290003170478
480,2018-11-28,100.64662170410156,0.016910983362979026
481,2018-11-29,100.47248077392578,-0.0017302213152047274
482,2018-11-30,100.6659698486328,0.001925791751299366
483,2018-12-03,101.06262969970705,0.003940356921715349
484,2018-12-04,99.59207916259766,-0.014550883362909885
485,2018-12-06,98.32467651367188,-0.012725938243106416
486,2018-12-07,96.52516174316406,-0.018301761412432338
487,2018-12-10,95.88662719726562,-0.006615213425878118
488,2018-12-11,95.46094512939452,-0.004439431027179253
489,2018-12-12,96.6799545288086,0.012769718524803464
490,2018-12-13,97.0572738647461,0.0039027669983551228
491,2018-12-14,97.07664489746094,0.00019958352366078458
492,2018-12-17,95.43192291259766,-0.016942509566544528
493,2018-12-18,94.75469970703124,-0.007096401129700225
494,2018-12-19,92.48110961914062,-0.02399448359733336
495,2018-12-20,91.91998291015624,-0.006067473793245347
496,2018-12-21,90.50747680664062,-0.015366692407854488
497,2018-12-24,86.78267669677734,-0.04115461220757388
498,2018-12-26,88.78535461425781,0.02307693186830262
499,2018-12-27,89.36585235595703,0.006538215049332052
500,2018-12-28,89.68509674072266,0.003572330776794086
501,2018-12-31,91.01055145263672,0.014778985138923506
502,2019-01-02,87.24706268310547,-0.041352224653751546
503,2019-01-03,86.1925277709961,-0.012086766931508121
504,2019-01-04,88.10811614990234,0.0222245295322554
505,2019-01-07,88.9594955444336,0.009662894086655438
506,2019-01-08,90.47844696044922,0.017074640618403025
507,2019-01-09,90.43973541259766,-0.000427853805542
508,2019-01-10,91.50396728515624,0.011767304135769764
509,2019-01-11,91.64909362792969,0.0015860114821162339
510,2019-01-14,90.90414428710938,-0.008128278320401083
511,2019-01-15,91.72648620605469,0.009046253340750264
512,2019-01-16,91.6297378540039,-0.0010547482635870908
513,2019-01-17,92.81005096435548,0.012881332392680191
514,2019-01-18,94.51282501220705,0.018346871164907963
515,2019-01-22,93.303466796875,-0.012795704870485536
516,2019-01-23,94.21289825439452,0.009747027508628214
517,2019-01-24,93.97103118896484,-0.0025672394110685115
518,2019-01-25,94.22257995605469,0.002676875670162726
519,2019-01-28,94.69664001464844,0.005031278689406005
520,2019-01-29,95.08496856689452,0.004100763788303485
521,2019-01-30,95.10438537597656,0.00020420482201011223
522,2019-01-31,96.23058319091795,0.011841702256832676
523,2019-02-01,96.64805603027344,0.004338255318761197
524,2019-02-04,96.93929290771484,0.0030133754304400018
525,2019-02-05,98.12374114990234,0.012218453494550195
526,2019-02-06,98.62857818603516,0.0051449020412051025
527,2019-02-07,98.97808837890624,0.0035437010174863563
528,2019-02-08,98.43440246582031,-0.00549299266120995
529,2019-02-11,98.73536682128906,0.003057511885372177
530,2019-02-12,99.3373031616211,0.006096461275335363
531,2019-02-13,99.80330657958984,0.004691122097512102
532,2019-02-14,98.80332946777344,-0.010019478773671264
533,2019-02-15,98.9683837890625,0.00167053400101147
534,2019-02-19,98.58975219726562,-0.003825783318881726
535,2019-02-20,99.279052734375,0.006991604317355239
536,2019-02-21,100.1139907836914,0.008410012246493848
537,2019-02-22,99.07515716552734,-0.010376507918944069
538,2019-02-25,98.59945678710938,-0.0048014092738021255
539,2019-02-26,98.3567352294922,-0.002461692645439717
540,2019-02-27,98.4538345336914,0.000987215608291958
541,2019-02-28,98.76451110839844,0.0031555558620799395
542,2019-03-01,97.87132263183594,-0.009043617657178316
543,2019-03-04,98.64801025390624,0.007935803881919279
544,2019-03-05,98.5120849609375,-0.0013778817496560294
545,2019-03-06,97.56063079833984,-0.009658248152751292
546,2019-03-07,96.96842193603516,-0.0060701622925009024
547,2019-03-08,97.54122924804688,0.005907153077004511
548,2019-03-11,99.04603576660156,0.01542738932198584
549,2019-03-12,99.279052734375,0.0023526127620345787
550,2019-03-13,99.29846954345705,0.00019557810582648827
551,2019-03-14,99.89069366455078,0.005964081055997994
552,2019-03-15,100.0460205078125,0.0015549681112769775
553,2019-03-18,100.68678283691406,0.006404675826676476
554,2019-03-19,100.5799789428711,-0.001060753864943309
555,2019-03-20,100.9197769165039,0.003378385810021145
556,2019-03-21,102.4634246826172,0.015295790510817753
557,2019-03-22,100.80327606201172,-0.016202353432435368
558,2019-03-25,101.46345520019531,0.006549183359650712
559,2019-03-26,102.36634826660156,0.008898702144774841
560,2019-03-27,102.44401550292969,0.0007587184425672523
561,2019-03-28,103.09449768066406,0.006349635696540679
562,2019-03-29,103.28865814208984,0.0018833251608363355
563,2019-04-01,104.57017517089844,0.012407141808790543
564,2019-04-02,104.09446716308594,-0.004549174820019708
565,2019-04-03,104.33717346191406,0.002331596533827973
566,2019-04-04,104.94880676269531,0.005862084245597421
567,2019-04-05,105.57014465332031,0.005920390233973283
568,2019-04-08,105.81285095214844,0.002299005079751781
569,2019-04-09,105.00707244873048,-0.007615128939133742
570,2019-04-10,105.86139678955078,0.008135874288252465
571,2019-04-11,106.46334075927734,0.005686151779417782
572,2019-04-12,107.09436798095705,0.00592717847457469
573,2019-04-15,106.68661499023438,-0.003807417686009229
574,2019-04-16,106.42449951171876,-0.002456873137643423
575,2019-04-17,104.56047821044922,-0.017514964221788887
576,2019-04-18,105.05561065673828,0.004735368991833688
577,2019-04-22,105.75460815429688,0.006653595112045219
578,2019-04-23,106.8516616821289,0.010373576593763369
579,2019-04-24,106.73517608642578,-0.001090161761355235
580,2019-04-25,106.25943756103516,-0.004457185932830732
581,2019-04-26,108.17203521728516,0.01799932034414731
582,2019-04-29,108.07494354248048,-0.0008975672373146004
583,2019-04-30,108.34766387939452,0.002523437236928494
584,2019-05-01,109.87684631347656,0.014113663177677925
585,2019-05-02,110.06189727783205,0.0016841670521516858
586,2019-05-03,110.88980102539062,0.007522164963853717
587,2019-05-06,112.02938842773438,0.010276755768394041
588,2019-05-07,111.00666809082031,-0.009129036150846924
589,2019-05-08,111.02615356445312,0.00017553426265237704
590,2019-05-09,110.06189727783205,-0.008684947245887531
591,2019-05-10,110.64630126953124,0.005309775736683564
592,2019-05-13,109.86711120605469,-0.007042170000590153
593,2019-05-14,110.04242706298828,0.0015957082607258588
594,2019-05-15,110.295654296875,0.002301178196858267
595,2019-05-16,111.14303588867188,0.007682819393010963
596,2019-05-17,110.82162475585938,-0.002891869294756821
597,2019-05-20,110.10086059570312,-0.0065038223518568685
598,2019-05-21,110.5294189453125,0.0038924159837683274
599,2019-05-22,110.20799255371094,-0.002908061895816161
600,2019-05-23,110.02293395996094,-0.0016791757971620358
601,2019-05-24,109.99372100830078,-0.0002655169300501692
602,2019-05-28,109.9645004272461,-0.00026565681010537473
603,2019-05-29,109.76968383789062,-0.001771631650201111
604,2019-05-30,110.55863189697266,0.007187303739046635
605,2019-05-31,110.32487487792969,-0.00211432626319763
606,2019-06-03,111.06510925292969,0.006709587260525174
607,2019-06-04,112.71117401123048,0.014820718850167447
608,2019-06-05,114.08451080322266,0.012184566473021794
609,2019-06-06,117.1039047241211,0.026466291520558904
610,2019-06-07,118.74998474121094,0.014056576686898305
611,2019-06-10,120.01618194580078,0.010662714671915374
612,2019-06-11,119.39281463623048,-0.00519402716753492
613,2019-06-12,118.457763671875,-0.00783171891210055
614,2019-06-13,117.58116912841795,-0.007400059871847553
615,2019-06-14,116.9675521850586,-0.005218666797650151
616,2019-06-17,117.04547119140624,0.0006661591603145388
617,2019-06-18,116.38314819335938,-0.005658681120295106
618,2019-06-19,116.30523681640624,-0.0006694386443619749
619,2019-06-20,116.69483184814452,0.003349763453500243
620,2019-06-21,116.2760009765625,-0.003589112430677721
621,2019-06-24,115.69161224365234,-0.005025875743937536
622,2019-06-25,117.91233825683594,0.019195220553298583
623,2019-06-26,116.13965606689452,-0.015033899048631947
624,2019-06-27,118.38959503173828,0.01937270215048548
625,2019-06-28,121.1070327758789,0.022953349434231333
626,2019-07-01,121.03887176513672,-0.0005628162888634547
627,2019-07-02,120.32786560058594,-0.005874196893791428
628,2019-07-03,122.64596557617188,0.01926486407795669
629,2019-07-05,121.37003326416016,-0.01040337777127509
630,2019-07-08,120.7661590576172,-0.004975480275502875
631,2019-07-09,120.84407043457031,0.0006451424601152668
632,2019-07-10,120.36681365966795,-0.0039493603052767065
633,2019-07-11,120.79537200927734,0.0035604361084202725
634,2019-07-12,120.20122528076172,-0.004918621621281871
635,2019-07-15,119.72396850585938,-0.003970481779928536
636,2019-07-16,119.9577407836914,0.0019525937934523614
637,2019-07-17,120.318115234375,0.0030041783742278394
638,2019-07-18,121.12653350830078,0.006719007128319854
639,2019-07-19,120.19149017333984,-0.007719558282387906
640,2019-07-22,119.9577407836914,-0.0019448081499889856
641,2019-07-23,121.27263641357422,0.010961323723609029
642,2019-07-24,120.08434295654295,-0.009798529100817466
643,2019-07-25,119.72396850585938,-0.0030010111377632986
644,2019-07-26,121.25315856933594,0.012772630932307516
645,2019-07-29,121.6914520263672,0.003614697235129194
646,2019-07-30,120.93930053710938,-0.006180807909949682
647,2019-07-31,118.21399688720705,-0.022534475044909685
648,2019-08-01,114.83422088623048,-0.02859032001262385
649,2019-08-02,115.28355407714844,0.003912885788315057
650,2019-08-05,114.36534881591795,-0.007964754978112666
651,2019-08-06,116.9441375732422,0.0225486896514
652,2019-08-07,118.83916473388672,0.01620455030896828
653,2019-08-08,120.02110290527344,0.009945695714316027
654,2019-08-09,118.2726058959961,-0.014568246474599866
655,2019-08-12,117.23717498779295,-0.008754613127520459
656,2019-08-13,118.40935516357422,0.009998365927047505
657,2019-08-14,116.32874298095705,-0.017571349660193247
658,2019-08-15,115.58636474609376,-0.006381726612354144
659,2019-08-16,117.46185302734376,0.016225860942766346
660,2019-08-19,117.43254852294922,-0.000249481032686627
661,2019-08-20,116.12361145019531,-0.011146288564946816
662,2019-08-21,116.56317901611328,0.00378534184760948
663,2019-08-22,117.74512481689452,0.010139958525134718
664,2019-08-23,117.47162628173828,-0.002322801352340975
665,2019-08-26,118.1846923828125,0.00607011347032893
666,2019-08-27,118.68286895751952,0.004215237732255296
667,2019-08-28,119.03451538085938,0.002962908012155596
668,2019-08-29,118.86846160888672,-0.0013950052339134489
669,2019-08-30,119.38616943359376,0.004355300116615224
670,2019-09-03,116.87576293945312,-0.021027615728445026
671,2019-09-04,119.1126708984375,0.019139194497863388
672,2019-09-05,118.38981628417969,-0.006068662626784405
673,2019-09-06,118.07723236083984,-0.002640294014727762
674,2019-09-09,116.33851623535156,-0.014725244576997087
675,2019-09-10,116.34828186035156,8.394146079915288e-05
676,2019-09-11,115.87940216064452,-0.004029966684594655
677,2019-09-12,115.3128662109375,-0.004889013397925801
678,2019-09-13,115.6547622680664,0.0029649428408404788
679,2019-09-16,113.7792739868164,-0.016216265067433788
680,2019-09-17,114.29698181152344,0.0045501065929371975
681,2019-09-18,115.55706024169922,0.011024599339409136
682,2019-09-19,115.11749267578124,-0.003803900557859285
683,2019-09-20,115.3128662109375,0.0016971663525240375
684,2019-09-23,115.36170196533205,0.0004235065522109061
685,2019-09-24,115.7621841430664,0.0034715349280709518
686,2019-09-25,116.35806274414062,0.005147437442418967
687,2019-09-26,116.16268157958984,-0.0016791373106683773
688,2019-09-27,115.91848754882812,-0.0021021728100724113
689,2019-09-30,115.70357513427734,-0.0018539960199209786
690,2019-10-01,114.9416732788086,-0.006584946528960245
691,2019-10-02,112.67546844482422,-0.01971612879244722
692,2019-10-03,112.32381439208984,-0.003120946001716196
693,2019-10-04,114.60955810546876,0.02034959127545344
694,2019-10-07,113.85740661621094,-0.006562729162306602
695,2019-10-08,112.1186752319336,-0.015271131109970137
696,2019-10-09,113.7792739868164,0.014811080771759187
697,2019-10-10,113.61319732666016,-0.0014596389512513408
698,2019-10-11,113.63274383544922,0.00017204435091167092
699,2019-10-14,113.1638641357422,-0.004126272796738939
700,2019-10-15,112.5093994140625,-0.00578333663911179
701,2019-10-16,112.79268646240234,0.002517896725208413
702,2019-10-17,113.84764862060548,0.009353107823660169
703,2019-10-18,115.04910278320312,0.010553175029564876
704,2019-10-21,115.16633605957031,0.0010189847076695902
705,2019-10-22,113.95508575439452,-0.01051739897802484
706,2019-10-23,114.64862823486328,0.006086103800259979
707,2019-10-24,114.61931610107422,-0.00025566929356546364
708,2019-10-25,115.14679718017578,0.004602026054983721
709,2019-10-28,115.45938110351562,0.002714655821913325
710,2019-10-29,116.11583709716795,0.005685601181802502
711,2019-10-30,116.84090423583984,0.006244343207594928
712,2019-10-31,115.76312255859376,-0.009224352415748259
713,2019-11-01,108.5518035888672,-0.06229374960127342
714,2019-11-04,106.47462463378906,-0.01913537026934453
715,2019-11-05,106.46482849121094,-9.200448099078161e-05
716,2019-11-06,107.27806091308594,0.007638507790787673
717,2019-11-07,107.18988800048828,-0.0008219100144725155
718,2019-11-08,106.79796600341795,-0.0036563336745770725
719,2019-11-11,106.3864517211914,-0.003853203367312985
720,2019-11-12,106.03372192382812,-0.0033155518551147845
721,2019-11-13,107.40544891357422,0.012936705086439515
722,2019-11-14,108.23828125,0.0077540976258656516
723,2019-11-15,107.73857879638672,-0.00461668873380494
724,2019-11-18,108.11090087890624,0.003455791664220609
725,2019-11-19,108.26766967773438,0.0014500739292120368
726,2019-11-20,108.463623046875,0.001809897356467527
727,2019-11-21,109.05150604248048,0.005420093659893821
728,2019-11-22,107.89533233642578,-0.01060208838935539
729,2019-11-25,108.70857238769531,0.00753730521663143
730,2019-11-26,110.28605651855469,0.014511129124513468
731,2019-11-27,110.55059051513672,0.0023986168780776307
732,2019-11-29,109.8549346923828,-0.0062926468281385714
733,2019-12-02,109.74716186523438,-0.0009810467545241508
734,2019-12-03,110.43301391601562,0.006249383028450906
735,2019-12-04,109.52181243896484,-0.008251169145340409
736,2019-12-05,109.6883773803711,0.0015208380659248455
737,2019-12-06,109.81575012207031,0.0011612236842333257
738,2019-12-09,110.35462188720705,0.004907053537746009
739,2019-12-10,109.67857360839844,-0.006126143764958014
740,2019-12-11,110.29584503173828,0.005628003747967902
741,2019-12-12,111.87332153320312,0.014302229617180197
742,2019-12-13,111.66755676269531,-0.001839265766742648
743,2019-12-16,112.010498046875,0.003071091498029865
744,2019-12-17,111.0600814819336,-0.00848506685992656
745,2019-12-18,110.79554748535156,-0.0023818998964543203
746,2019-12-19,110.97190856933594,0.0015917704996917248
747,2019-12-20,112.63756561279295,0.015009717909071576
748,2019-12-23,113.03927612304688,0.003566399078925864
749,2019-12-24,112.41221618652344,-0.005547274876750441
750,2019-12-26,112.50039672851562,0.0007844391382327843
751,2019-12-27,112.69635772705078,0.0017418693998745296
752,2019-12-30,113.42140197753906,0.006433608548772618
753,2019-12-31,113.2842254638672,-0.0012094411749470346
754,2020-01-02,111.38341522216795,-0.016779125548291973
755,2020-01-03,111.73614501953124,0.0031668071647805718
756,2020-01-06,111.7459487915039,8.7740381332857e-05
757,2020-01-07,110.62896728515624,-0.009995722604957624
758,2020-01-08,110.9327163696289,0.002745655969920824
759,2020-01-09,112.3436279296875,0.012718624462033644
760,2020-01-10,113.45079040527344,0.009855142619026758
761,2020-01-13,113.85250854492188,0.003540902079336883
762,2020-01-14,113.78392791748048,-0.0006023637802792247
763,2020-01-15,114.35221099853516,0.00499440554967312
764,2020-01-16,115.83170318603516,0.012938028697310866
765,2020-01-17,114.94987487792969,-0.007613013396593037
766,2020-01-21,113.29402923583984,-0.014404936445979288
767,2020-01-22,113.3332061767578,0.00034579881377871935
768,2020-01-23,114.9988784790039,0.01469712503896048
769,2020-01-24,114.7539291381836,-0.002130015040668676
770,2020-01-27,114.13664245605469,-0.005379220448178179
771,2020-01-28,113.97940063476562,-0.0013776629301988086
772,2020-01-29,113.94991302490234,-0.0002587099923236913
773,2020-01-30,114.53961944580078,0.005175137086498305
774,2020-01-31,113.52730560302734,-0.008838110757408812
775,2020-02-03,115.22759246826172,0.0149768979031335
776,2020-02-04,114.9425811767578,-0.0024734639108460192
777,2020-02-05,115.8467788696289,0.007866516338976616
778,2020-02-06,115.51261901855469,-0.002884498423993964
779,2020-02-07,114.69686889648438,-0.007062000056801355
780,2020-02-10,113.81231689453124,-0.007712084998165558
781,2020-02-11,114.05802917480469,0.0021589252110660877
782,2020-02-12,112.74102783203124,-0.011546765732336373
783,2020-02-13,114.2054443359375,0.012989206609753891
784,2020-02-14,114.6673812866211,0.004044789224975975
785,2020-02-18,113.28158569335938,-0.012085351367690178
786,2020-02-19,113.03587341308594,-0.002169039908556325
787,2020-02-20,112.95724487304688,-0.0006956069579054924
788,2020-02-21,110.0578842163086,-0.025667770668423073
789,2020-02-24,107.33543395996094,-0.024736530924008404
790,2020-02-25,105.10440063476562,-0.020785617972416737
791,2020-02-26,102.88318634033205,-0.021133409077249032
792,2020-02-27,100.64232635498048,-0.021780623880941263
793,2020-02-28,99.33515167236328,-0.012988319427420623
794,2020-03-02,101.80207824707031,0.02483437668514044
795,2020-03-03,100.99615478515624,-0.007916571800804741
796,2020-03-04,105.5958251953125,0.04554302507794383
797,2020-03-05,102.19519805908205,-0.032204181651505404
798,2020-03-06,105.45821380615234,0.0319292472546886
799,2020-03-09,99.70862579345705,-0.05452005875297572
800,2020-03-10,102.20502471923828,0.02503694044437488
801,2020-03-11,97.37931060791016,-0.047216016282805806
802,2020-03-12,92.77964782714844,-0.04723449726689777
803,2020-03-13,94.73548126220705,0.021080414518304558
804,2020-03-16,86.37155151367188,-0.08828719332079649
805,2020-03-17,94.79444885253906,0.09751934741538038
806,2020-03-18,95.08929443359376,0.0031103675861163804
807,2020-03-19,97.1827392578125,0.022015567963654448
808,2020-03-20,90.92208862304688,-0.0644214258887782
809,2020-03-23,82.4893569946289,-0.09274678745424736
810,2020-03-24,86.5484619140625,0.04920761983510058
811,2020-03-25,88.632080078125,0.02407458339503954
812,2020-03-26,94.54875183105469,0.06675542024642113
813,2020-03-27,92.38650512695312,-0.022869119498956425
814,2020-03-30,98.7552719116211,0.06893611546314382
815,2020-03-31,97.8314208984375,-0.009354953870314596
816,2020-04-01,94.5585708618164,-0.033453976305002915
817,2020-04-02,94.49959564208984,-0.0006236898378333411
818,2020-04-03,92.57325744628906,-0.020384618396639964
819,2020-04-06,99.03047943115234,0.06975256313746714
820,2020-04-07,99.3843002319336,0.0035728474992109405
821,2020-04-08,102.32296752929688,0.029568727560643993
822,2020-04-09,105.42872619628906,0.03035250777009524
823,2020-04-13,100.59317779541016,-0.04586556790865515
824,2020-04-14,102.23451232910156,0.016316559131172914
825,2020-04-15,99.19756317138672,-0.02970571374115472
826,2020-04-16,100.10177612304688,0.009115273830849313
827,2020-04-17,101.17306518554688,0.010701998545791458
828,2020-04-20,105.10440063476562,0.038857530331900765
829,2020-04-21,104.29847717285156,-0.0076678374744233455
830,2020-04-22,104.4753875732422,0.001696193512945143
831,2020-04-23,103.21734619140624,-0.012041509594343693
832,2020-04-24,102.33280181884766,-0.008569725973367692
833,2020-04-27,110.64759063720705,0.08125243001826976
834,2020-04-28,109.6221694946289,-0.009267451163399556
835,2020-04-29,108.5375747680664,-0.009893935976295731
836,2020-04-30,105.5796127319336,-0.027252884933661625
837,2020-05-01,104.65277099609376,-0.008778605185767008
838,2020-05-04,105.31338500976562,0.006312436903333607
839,2020-05-05,104.08089447021484,-0.011703075914201166
840,2020-05-06,103.39071655273438,-0.006631168198482196
841,2020-05-07,103.99217987060548,0.00581738223628947
842,2020-05-08,106.02330017089844,0.0195314715281496
843,2020-05-11,104.82038879394531,-0.011345726599852668
844,2020-05-12,102.49346160888672,-0.022199184832569552
845,2020-05-13,100.98489379882812,-0.014718673624423584
846,2020-05-14,101.02433776855469,0.00039059277326303215
847,2020-05-15,100.07779693603516,-0.00936943367733867
848,2020-05-18,102.69065856933594,0.026108304871766963
849,2020-05-19,102.27655792236328,-0.004032505514540596
850,2020-05-20,102.947021484375,0.0065553981834298725
851,2020-05-21,103.61748504638672,0.006512704810148096
852,2020-05-22,103.62734985351562,9.52040780037855e-05
853,2020-05-26,108.01500701904295,0.04234072541399137
854,2020-05-27,110.97296905517578,0.027384732156813474
855,2020-05-28,110.0362777709961,-0.008440715718022851
856,2020-05-29,109.82920837402344,-0.0018818284402858374
857,2020-06-01,109.85879516601562,0.00026938910359275425
858,2020-06-02,110.49968719482422,0.005833779879345079
859,2020-06-03,111.69273376464844,0.01079683210071658
860,2020-06-04,110.56871032714844,-0.010063532332089451
861,2020-06-05,111.8110580444336,0.011235979090371329
862,2020-06-08,111.98853302001952,0.0015872757014372407
863,2020-06-09,110.89408111572266,-0.009772892588040372
864,2020-06-10,110.0757064819336,-0.00737978641921433
865,2020-06-11,102.7892608642578,-0.0661948567086571
866,2020-06-12,103.88370513916016,0.010647457387086943
867,2020-06-15,103.93301391601562,0.00047465362146459356
868,2020-06-16,105.88526153564452,0.0187837102579016
869,2020-06-17,105.41199493408205,-0.004469617345216226
870,2020-06-18,105.4908676147461,0.0007482325015608637
871,2020-06-19,106.09232330322266,0.005701495324439643
872,2020-06-22,106.04302978515624,-0.0004646285096946423
873,2020-06-23,105.93457794189452,-0.0010227154343047662
874,2020-06-24,104.45558166503906,-0.01396141189769684
875,2020-06-25,106.09232330322266,0.015669259718759543
876,2020-06-26,106.21063995361328,0.0011152234837243924
877,2020-06-29,107.71920013427734,0.014203475106852938
878,2020-06-30,110.41094970703124,0.024988577425365976
879,2020-07-01,110.90394592285156,0.004465102574775948
880,2020-07-02,113.35905456542969,0.02213725239574416
881,2020-07-06,113.64498901367188,0.0025223785549230997
882,2020-07-07,113.53652954101562,-0.0009543709194533844
883,2020-07-08,111.34764099121094,-0.019279156749404947
884,2020-07-09,112.16600799560548,0.0073496573174742785
885,2020-07-10,113.3393325805664,0.010460607504252815
886,2020-07-13,111.84062957763672,-0.013223150064558098
887,2020-07-14,114.6802749633789,0.025390105514123462
888,2020-07-15,116.2480010986328,0.013670407886225531
889,2020-07-16,115.59723663330078,-0.005598070153308377
890,2020-07-17,117.72697448730469,0.018423778249647027
891,2020-07-20,117.61851501464844,-0.000921279707803424
892,2020-07-21,116.52407836914062,-0.009304969080518588
893,2020-07-22,116.83959197998048,0.002707711704359683
894,2020-07-23,116.78043365478516,-0.0005063208814137797
895,2020-07-24,117.18468475341795,0.0034616338198212304
896,2020-07-27,118.1706771850586,0.00841400421663785
897,2020-07-28,116.74658966064452,-0.012051107417992646
898,2020-07-29,117.49817657470705,0.006437763332078683
899,2020-07-30,116.60812377929688,-0.007575034961025629
900,2020-07-31,113.92803955078124,-0.0229836836547358
901,2020-08-03,117.34984588623048,0.0300348039775058
902,2020-08-04,117.31028747558594,-0.00033709810478066426
903,2020-08-05,117.05315399169922,-0.002191909076518339
904,2020-08-06,116.3608856201172,-0.0059141368512898316
905,2020-08-07,117.9333267211914,0.01351348516036355
906,2020-08-10,115.70816040039062,-0.018868002647473348
907,2020-08-11,115.45104217529295,-0.0022221269805686727
908,2020-08-12,116.7861328125,0.011564128067202084
909,2020-08-13,117.21139526367188,0.003641377969545667
910,2020-08-14,117.18172454833984,-0.00025313848764696445
911,2020-08-17,116.94436645507812,-0.0020255555563513106
912,2020-08-18,116.57845306396484,-0.003128952699520071
913,2020-08-19,116.39055633544922,-0.0016117620673223865
914,2020-08-20,116.25210571289062,-0.0011895348464489028
915,2020-08-21,116.49934387207031,0.00212674134084323
916,2020-08-24,117.79486846923828,0.01112044543865065
917,2020-08-25,116.82569122314452,-0.008227669496034595
918,2020-08-26,117.29051208496094,0.003978755502747955
919,2020-08-27,118.72449493408205,0.012225906628171137
920,2020-08-28,116.82569122314452,-0.015993361032967782
921,2020-08-31,117.08281707763672,0.002200935871212284
922,2020-09-01,118.1805648803711,0.00937582328589226
923,2020-09-02,120.91010284423828,0.02309633539685807
924,2020-09-03,117.8542022705078,-0.02527415411818179
925,2020-09-04,117.40917205810548,-0.003776108138943135
926,2020-09-08,114.77854919433594,-0.02240559930418096
927,2020-09-09,116.58834075927734,0.015767681135933964
928,2020-09-10,115.89608001708984,-0.00593764983427314
929,2020-09-11,117.05315399169922,0.009983719677479684
930,2020-09-14,117.76520538330078,0.006083145710469751
931,2020-09-15,117.0234832763672,-0.006298312854967958
932,2020-09-16,116.46966552734376,-0.004732535158909257
933,2020-09-17,114.67964935302734,-0.015368947495570606
934,2020-09-18,113.76981353759766,-0.007933716405330693
935,2020-09-21,112.19735717773438,-0.013821384697476293
936,2020-09-22,113.06765747070312,0.007756869812807431
937,2020-09-23,110.9018325805664,-0.01915512303505451
938,2020-09-24,111.0205078125,0.0010700926140907454
939,2020-09-25,110.86226654052734,-0.0014253337071733485
940,2020-09-28,111.11940002441406,0.00231939587661878
941,2020-09-29,111.37653350830078,0.002314028727928852
942,2020-09-30,111.95011901855469,0.005149967342188422
943,2020-10-01,112.4446029663086,0.004417002430090689
944,2020-10-02,111.60398864746094,-0.007475808501894331
945,2020-10-05,113.28523254394531,0.015064371057518013
946,2020-10-06,113.29511260986328,8.721406750122895e-05
947,2020-10-07,113.7104721069336,0.0036661731252312095
948,2020-10-08,115.23346710205078,0.013393621246114984
949,2020-10-09,115.52025604248048,0.002488764311636249
950,2020-10-12,116.7366943359375,0.010530086541789664
951,2020-10-13,116.2619857788086,-0.004066489631467718
952,2020-10-14,115.15435791015624,-0.009526999399095515
953,2020-10-15,115.05545043945312,-0.0008589120941500107
954,2020-10-16,115.06535339355469,8.607114277281447e-05
955,2020-10-19,113.87860107421876,-0.010313724195300631
956,2020-10-20,115.66860961914062,0.015718568089497786
957,2020-10-21,116.44000244140624,0.006668990185025647
958,2020-10-22,117.0037078857422,0.004841166545145326
959,2020-10-23,117.04326629638672,0.00033809535919271383
960,2020-10-26,116.16309356689452,-0.007520062942052208
961,2020-10-27,114.72470092773438,-0.012382526971286391
962,2020-10-28,111.44116973876952,-0.02862096098235345
963,2020-10-29,112.036376953125,0.005340999342978048
964,2020-10-30,113.17716979980469,0.010182343250505044
965,2020-11-02,117.24436950683594,0.035936573729715926
966,2020-11-03,118.60340881347656,0.011591510213728284
967,2020-11-04,118.09749603271484,-0.004265583812665508
968,2020-11-05,121.92660522460938,0.032423288558411256
969,2020-11-06,122.611083984375,0.005613858915408221
970,2020-11-09,122.1845245361328,-0.0034789631930548515
971,2020-11-10,126.58900451660156,0.03604777280257165
972,2020-11-11,124.2677230834961,-0.01833714896463257
973,2020-11-12,123.27571868896484,-0.007982800118295552
974,2020-11-13,124.06932067871094,0.006437618033673154
975,2020-11-16,125.84500122070312,0.01431200342097849
976,2020-11-17,126.34099578857422,0.003941313227064479
977,2020-11-18,125.35892486572266,-0.007773177001826227
978,2020-11-19,126.21204376220705,0.006805410124554046
979,2020-11-20,126.78740692138672,0.004558702498025369
980,2020-11-23,125.84500122070312,-0.007432959814912209
981,2020-11-24,126.85684204101562,0.008040373558723779
982,2020-11-25,125.2795639038086,-0.012433528312939313
983,2020-11-27,126.22196197509766,0.007522360726069044
984,2020-11-30,125.309326171875,-0.007230404193865336
985,2020-12-01,126.7973175048828,0.011874545801697556
986,2020-12-02,125.2498016357422,-0.012204642019189471
987,2020-12-03,124.86293029785156,-0.003088798008764604
988,2020-12-04,126.65843963623048,0.01437984303344364
989,2020-12-07,127.60084533691406,0.0074405282694955934
990,2020-12-08,128.15635681152344,0.004353509360714769
991,2020-12-09,128.49363708496094,0.002631787309103517
992,2020-12-10,129.42611694335938,0.007257011938901492
993,2020-12-11,129.40628051757812,-0.00015326447435592971
994,2020-12-14,127.38260650634766,-0.015638143706290797
995,2020-12-15,129.21778869628906,0.014406850670385385
996,2020-12-16,130.05108642578122,0.006448784938200225
997,2020-12-17,132.07475280761722,0.015560549607487316
998,2020-12-18,133.02708435058594,0.007210549501129205
999,2020-12-21,133.81076049804688,0.005891102186345698
1000,2020-12-22,133.42387390136722,-0.002891296598566906
1001,2020-12-23,133.45364379882812,0.00022312271852431562
1002,2020-12-24,134.6142578125,0.008696757770221941
1003,2020-12-28,134.59442138671878,-0.0001473575392648696
1004,2020-12-29,134.22738647460938,-0.0027269697237661816
1005,2020-12-30,135.29875183105472,0.007981719562482947
1006,2020-12-31,135.79475402832028,0.0036659776276792852
1007,2021-01-04,132.92787170410156,-0.021111878324996503
1008,2021-01-05,132.63027954101562,-0.002238749174803489
1009,2021-01-06,136.61811828613278,0.03006733273063733
1010,2021-01-07,138.582275390625,0.014376988419489756
1011,2021-01-08,137.95732116699222,-0.0045096259378857315
1012,2021-01-11,137.67955017089844,-0.0020134560003346453
1013,2021-01-12,137.044677734375,-0.004611232646644981
1014,2021-01-13,137.47122192382812,0.003112446221952947
1015,2021-01-14,138.33427429199222,0.006278058462608982
1016,2021-01-15,137.71922302246094,-0.004446123512623079
1017,2021-01-19,136.16178894042972,-0.01130876320567986
1018,2021-01-20,139.49490356445312,0.02447907485617451
1019,2021-01-21,137.00498962402344,-0.017849497557301253
1020,2021-01-22,137.0843505859375,0.0005792559974044932
1021,2021-01-25,138.45332336425778,0.009986353456604702
1022,2021-01-26,138.09527587890622,-0.002586051939031941
1023,2021-01-27,132.52571105957028,-0.0403313204154776
1024,2021-01-28,134.51483154296878,0.015009317569361302
1025,2021-01-29,132.24723815917972,-0.016857571449767742
1026,2021-02-01,133.36112976074222,0.008422796703109636
1027,2021-02-02,136.19564819335938,0.02125445725979125
1028,2021-02-03,135.81771850585938,-0.0027749028145410692
1029,2021-02-04,137.24989318847656,0.0105448294844932
1030,2021-02-05,139.89543151855472,0.01927533980988394
1031,2021-02-08,141.208251953125,0.009384298116955849
1032,2021-02-09,141.397216796875,0.0013381997237154053
1033,2021-02-10,142.47134399414062,0.007596522913238645
1034,2021-02-11,142.19287109375,-0.001954588849825689
1035,2021-02-12,143.84385681152344,0.011610889526837864
1036,2021-02-16,142.8194580078125,-0.007121602732421128
1037,2021-02-17,142.43157958984375,-0.002715865354618097
1038,2021-02-18,140.2236328125,-0.015501806437181354
1039,2021-02-19,131.52120971679688,-0.062061030092834375
1040,2021-02-22,128.39826965332028,-0.02374476383087698
1041,2021-02-23,127.5827178955078,-0.006351734801524178
1042,2021-02-24,128.06010437011722,0.0037417800975239053
1043,2021-02-25,129.59175109863278,0.011960373888879829
1044,2021-02-26,129.36300659179688,-0.0017651162585325952
1045,2021-03-01,129.89012145996094,0.004074695556724128
1046,2021-03-02,129.6414794921875,-0.0019142484815527492
1047,2021-03-03,130.33766174316406,0.0053700578989344105
1048,2021-03-04,129.69117736816406,-0.004960073445800517
1049,2021-03-05,133.36112976074222,0.02829762569091332
1050,2021-03-08,136.96147155761722,0.026996935338911898
1051,2021-03-09,136.94157409667972,-0.0001452777975529118
1052,2021-03-10,138.62239074707028,0.01227396911038814
1053,2021-03-11,138.62239074707028,0.0
1054,2021-03-12,140.00483703613278,0.00997274885833499
1055,2021-03-15,141.35743713378906,0.00966109547563132
1056,2021-03-16,139.73629760742188,-0.011468370955486695
1057,2021-03-17,140.51205444335938,0.005551577143663389
1058,2021-03-18,140.7407989501953,0.0016279351102088668
1059,2021-03-19,138.55274963378906,-0.015546659765520719
1060,2021-03-22,140.8203582763672,0.016366392212147973
1061,2021-03-23,140.00483703613278,-0.005791216910795649
1062,2021-03-24,141.06900024414062,0.007600903158318628
1063,2021-03-25,141.6956024169922,0.004441813380453129
1064,2021-03-26,144.03282165527344,0.01649464908164977
1065,2021-03-29,143.98309326171875,-0.00034525737247381727
1066,2021-03-30,142.30227661132812,-0.011673708435582795
1067,2021-03-31,140.89993286132812,-0.009854682464639941
1068,2021-04-01,143.0879669189453,0.01552899290428078
1069,2021-04-05,143.9035186767578,0.00569965298531705
1070,2021-04-06,145.17657470703125,0.008846594176289857
1071,2021-04-07,142.8094940185547,-0.016304839077884048
1072,2021-04-08,142.8990020751953,0.0006267654490044182
1073,2021-04-09,144.41073608398438,0.010579038249641348
1074,2021-04-12,145.41526794433594,0.006956074649237642
1075,2021-04-13,145.53460693359375,0.0008206771609668984
1076,2021-04-14,145.01742553710938,-0.003553666082462215
1077,2021-04-15,146.39987182617188,0.009532966703430734
1078,2021-04-16,147.2751007080078,0.005978344590869211
1079,2021-04-19,148.896240234375,0.01100756012777282
1080,2021-04-20,149.60238647460938,0.004742539093820275
1081,2021-04-21,151.11410522460938,0.010104910661011155
1082,2021-04-22,149.25428771972656,-0.012307371983035331
1083,2021-04-23,150.62677001953125,0.009195597130060127
1084,2021-04-26,150.0996551513672,-0.0034994766740049643
1085,2021-04-27,151.19644165039062,0.007307055422062003
1086,2021-04-28,150.67794799804688,-0.0034292715270551892
1087,2021-04-29,150.47854614257812,-0.0013233645541239625
1088,2021-04-30,150.36886596679688,-0.0007288758337505862
1089,2021-05-03,152.01405334472656,0.010941010742828716
1090,2021-05-04,154.56655883789062,0.01679124684199862
1091,2021-05-05,153.72900390625,-0.005418733120137964
1092,2021-05-06,156.06216430664062,0.0151770995785121
1093,2021-05-07,157.09912109375,0.006644511126168372
1094,2021-05-10,155.02520751953125,-0.013201306027556536
1095,2021-05-11,153.53956604003906,-0.009583225226807213
1096,2021-05-12,151.16651916503906,-0.015455604937564925
1097,2021-05-13,154.16770935058594,0.019853537688926167
1098,2021-05-14,153.09088134765625,-0.006984783048705201
1099,2021-05-17,152.66213989257812,-0.002800568206962617
1100,2021-05-18,150.47854614257812,-0.014303439946122263
1101,2021-05-19,149.10256958007812,-0.009144004894865665
1102,2021-05-20,149.302001953125,0.0013375515499736144
1103,2021-05-21,149.19232177734375,-0.0007346195921450471
1104,2021-05-24,148.82339477539062,-0.002472828343697997
1105,2021-05-25,147.29786682128906,-0.010250592364217659
1106,2021-05-26,147.427490234375,0.0008800087596869678
1107,2021-05-27,146.34068298339844,-0.007371808671834512
1108,2021-05-28,146.8791046142578,0.003679234098698636
1109,2021-06-01,146.4503631591797,-0.002919009182443699
1110,2021-06-02,145.2339324951172,-0.008306095238154731
1111,2021-06-03,144.9746856689453,-0.0017850293090465594
1112,2021-06-04,145.13421630859375,0.001100403418102358
1113,2021-06-07,142.10311889648438,-0.02088478850269504
1114,2021-06-08,142.3623504638672,0.0018242496673956945
1115,2021-06-09,141.75413513183594,-0.0042723046511207174
1116,2021-06-10,144.56590270996094,0.01983552420188639
1117,2021-06-11,145.4034423828125,0.0057934800471719505
1118,2021-06-14,143.07028198242188,-0.01604611529242872
1119,2021-06-15,143.90782165527344,0.005854043629790695
1120,2021-06-16,142.20281982421875,-0.01184787464255388
1121,2021-06-17,141.0960693359375,-0.007782901138313147
1122,2021-06-18,139.69020080566406,-0.00996390995787544
1123,2021-06-21,141.16586303710938,0.01056382067556938
1124,2021-06-22,141.21572875976562,0.00035324207696829646
1125,2021-06-23,139.75999450683594,-0.01030858436035953
1126,2021-06-24,139.76995849609378,7.129357219137766e-05
1127,2021-06-25,140.50779724121094,0.005278950877972699
1128,2021-06-28,140.29841613769528,-0.0014901742652487784
1129,2021-06-29,139.86965942382812,-0.0030560338859874077
1130,2021-06-30,140.42802429199222,0.003992037089846301
1131,2021-07-01,140.70719909667972,0.0019880277180786
1132,2021-07-02,139.99929809570312,-0.00503102190592386
1133,2021-07-06,139.64035034179688,-0.0025639253824034647
1134,2021-07-07,140.60751342773438,0.00692610039698538
1135,2021-07-08,138.86262512207028,-0.012409637743582502
1136,2021-07-09,140.76702880859375,0.013714299905027484
1137,2021-07-12,140.00926208496094,-0.00538312650374384
1138,2021-07-13,138.09487915039062,-0.013673259226297585
1139,2021-07-14,138.03504943847656,-0.0004332507641279237
1140,2021-07-15,138.15469360351562,0.0008667665605639474
1141,2021-07-16,138.63328552246094,0.003464174154797828
1142,2021-07-19,136.7288818359375,-0.01373698732844997
1143,2021-07-20,136.61920166015622,-0.0008021726961308094
1144,2021-07-21,135.66200256347656,-0.007006329161992286
1145,2021-07-22,134.27607727050778,-0.01021601676799888
1146,2021-07-23,135.84149169921878,0.011658178139635213
1147,2021-07-26,136.32008361816406,0.0035231644835362896
1148,2021-07-27,136.35995483398438,0.00029248233101131227
1149,2021-07-28,137.24736022949222,0.0065078152642998885
1150,2021-07-29,138.64326477050778,0.010170720505527251
1151,2021-07-30,128.54289245605472,-0.07285151811140578
1152,2021-08-02,129.52999877929688,0.007679198004507448
1153,2021-08-03,128.6300048828125,-0.0069481502738053535
1154,2021-08-04,126.7699966430664,-0.01446014280603225
1155,2021-08-05,127.5,0.00575848683651059
1156,2021-08-06,128.42999267578122,0.007294060202205577
1157,2021-08-09,130.08000183105472,0.01284753756421142
1158,2021-08-10,129.19999694824222,-0.0067651050924447675
1159,2021-08-11,131.6300048828125,0.018808111392941917
1160,2021-08-12,132.67999267578122,0.007976811927519867
1161,2021-08-13,133.05000305175778,0.0027887428127970626
1162,2021-08-16,132.8800048828125,-0.001277701353220917
1163,2021-08-17,133.00999450683594,0.0009782481881910332
1164,2021-08-18,132.05000305175778,-0.007217438498795081
1165,2021-08-19,132.41000366210938,0.002726244619702723
